 Distance(m)       Height(m)
   0.00000000       0.00000000    
   24.5771294       24.5649261    
   48.8174095       48.7688370    
   72.7301102       72.6213303    
   96.3241348       96.1316071    
   119.608025       119.308510    
   142.589981       142.160522    
   165.277893       164.695816    
   187.679337       186.922211    
   209.801605       208.847275    
   231.651718       230.478271    
   253.236450       251.822189    
   274.562317       272.885773    
   295.635590       293.675507    
   316.462311       314.197662    
   337.048340       334.458282    
   357.399323       354.463196    
   377.520691       374.218048    
   397.417694       393.728271    
   417.095428       412.999115    
   436.558777       432.035645    
   455.812531       450.842804    
   474.861267       469.425323    
   493.709442       487.787811    
   512.361328       505.934723    
   530.821167       523.870361    
   549.092957       541.598938    
   567.180603       559.124451    
   585.087891       576.450867    
   602.818542       593.581970    
   620.376099       610.521423    
   637.764038       627.272888    
   654.985657       643.839783    
   672.044312       660.225464    
   688.943115       676.433228    
   705.685181       692.466309    
   722.273499       708.327759    
   738.710938       724.020569    
   755.000366       739.547668    
   771.144531       754.911865    
   787.146118       770.115967    
   803.007690       785.162659    
   818.731812       800.054565    
   834.320923       814.794250    
   849.777466       829.384155    
   865.103760       843.826721    
   880.302063       858.124329    
   895.374634       872.279236    
   910.323608       886.293640    
   925.151062       900.169739    
   939.859131       913.909729    
   954.449768       927.515625    
   968.924927       940.989441    
   983.286560       954.333130    
   997.536499       967.548645    
   1011.67651       980.637817    
   1025.70850       993.602539    
   1039.63403       1006.44458    
   1053.45496       1019.16565    
   1067.17285       1031.76746    
   1080.78931       1044.25171    
   1094.30591       1056.62000    
   1107.72424       1068.87402    
   1121.04578       1081.01526    
   1134.27197       1093.04517    
   1147.40430       1104.96533    
   1160.44421       1116.77710    
   1173.39307       1128.48193    
   1186.25208       1140.08130    
   1199.02271       1151.57642    
   1211.70618       1162.96875    
   1224.30383       1174.25952    
   1236.81689       1185.44995    
   1249.24646       1196.54138    
   1261.59375       1207.53503    
   1273.85999       1218.43213    
   1286.04626       1229.23376    
   1298.15381       1239.94104    
   1310.18359       1250.55518    
   1322.13672       1261.07727    
   1334.01416       1271.50842    
   1345.81702       1281.84961    
   1357.54639       1292.10193    
   1369.20312       1302.26636    
   1380.78821       1312.34387    
   1392.30261       1322.33545    
   1403.74719       1332.24207    
   1415.12305       1342.06470    
   1426.43091       1351.80420    
   1437.67175       1361.46155    
   1448.84631       1371.03760    
   1459.95557       1380.53320    
   1471.00024       1389.94922    
   1481.98120       1399.28650    
   1492.89929       1408.54578    
   1503.75525       1417.72803    
   1514.54980       1426.83386    
   1525.28381       1435.86414    
   1535.95789       1444.81970    
   1546.57288       1453.70117    
   1557.12939       1462.50940    
   1567.62830       1471.24500    
   1578.07019       1479.90869    
   1588.45569       1488.50122    
   1598.78552       1497.02332    
   1609.06042       1505.47559    
   1619.28088       1513.85864    
   1629.44763       1522.17322    
   1639.56128       1530.41992    
   1649.62244       1538.59937    
   1659.63171       1546.71228    
   1669.58972       1554.75916    
   1679.49707       1562.74060    
   1689.35425       1570.65723    
   1699.16187       1578.50964    
   1708.92041       1586.29834    
   1718.63049       1594.02393    
   1728.29272       1601.68689    
   1737.90747       1609.28784    
   1747.47534       1616.82727    
   1756.99695       1624.30579    
   1766.47266       1631.72388    
   1775.90295       1639.08191    
   1785.28845       1646.38049    
   1794.62952       1653.62012    
   1803.92664       1660.80127    
   1813.18030       1667.92444    
   1822.39099       1674.99011    
   1831.55908       1681.99866    
   1840.68506       1688.95056    
   1849.76941       1695.84631    
   1858.81250       1702.68628    
   1867.81482       1709.47095    
   1876.77673       1716.20081    
   1885.69873       1722.87622    
   1894.58118       1729.49756    
   1903.42444       1736.06519    
   1912.22888       1742.57959    
   1920.99500       1749.04114    
   1929.72314       1755.45032    
   1938.41370       1761.80737    
   1947.06689       1768.11279    
   1955.68323       1774.36682    
   1964.26306       1780.56995    
   1972.80676       1786.72241    
   1981.31470       1792.82471    
   1989.78711       1798.87708    
   1998.22449       1804.87988    
   2006.62708       1810.83350    
   2014.99512       1816.73828    
   2023.32910       1822.59460    
   2031.62927       1828.40271    
   2039.89600       1834.16296    
   2048.12964       1839.87561    
   2056.33032       1845.54102    
   2064.49854       1851.15955    
   2072.63452       1856.73145    
   2080.73853       1862.25696    
   2088.81079       1867.73645    
   2096.85181       1873.17017    
   2104.86182       1878.55847    
   2112.84082       1883.90161    
   2120.78931       1889.19983    
   2128.70776       1894.45349    
   2136.59619       1899.66284    
   2144.45483       1904.82812    
   2152.28418       1909.94958    
   2160.08423       1915.02747    
   2167.85547       1920.06213    
   2175.59790       1925.05371    
   2183.31201       1930.00256    
   2190.99805       1934.90894    
   2198.65601       1939.77295    
   2206.28638       1944.59497    
   2213.88940       1949.37524    
   2221.46509       1954.11389    
   2229.01392       1958.81128    
   2236.53589       1963.46753    
   2244.03149       1968.08289    
   2251.50073       1972.65771    
   2258.94385       1977.19202    
   2266.36133       1981.68616    
   2273.75317       1986.14038    
   2281.11963       1990.55481    
   2288.46069       1994.92969    
   2295.77686       1999.26514    
   2303.06812       2003.56152    
   2310.33496       2007.81897    
   2317.57739       2012.03760    
   2324.79565       2016.21765    
   2331.98999       2020.35938    
   2339.16040       2024.46301    
   2346.30737       2028.52869    
   2353.43091       2032.55652    
   2360.53125       2036.54675    
   2367.60840       2040.49963    
   2374.66284       2044.41528    
   2381.69458       2048.29395    
   2388.70361       2052.13574    
   2395.69043       2055.94067    
   2402.65503       2059.70923    
   2409.59766       2063.44141    
   2416.51855       2067.13745    
   2423.41772       2070.79736    
   2430.29541       2074.42139    
   2437.15186       2078.00977    
   2443.98730       2081.56274    
   2450.80176       2085.08032    
   2457.59521       2088.56274    
   2464.36816       2092.01001    
   2471.12061       2095.42236    
   2477.85254       2098.80005    
   2484.56445       2102.14307    
   2491.25610       2105.45166    
   2497.92798       2108.72583    
   2504.58008       2111.96582    
   2511.21265       2115.17188    
   2517.82568       2118.34399    
   2524.41943       2121.48242    
   2530.99390       2124.58716    
   2537.54932       2127.65845    
   2544.08594       2130.69653    
   2550.60376       2133.70142    
   2557.10278       2136.67310    
   2563.58325       2139.61206    
   2570.04541       2142.51807    
   2576.48926       2145.39136    
   2582.91504       2148.23218    
   2589.32275       2151.04053    
   2595.71265       2153.81665    
   2602.08496       2156.56055    
   2608.43945       2159.27246    
   2614.77661       2161.95239    
   2621.09619       2164.60059    
   2627.39868       2167.21704    
   2633.68408       2169.80200    
   2639.95239       2172.35547    
   2646.20386       2174.87744    
   2652.43848       2177.36816    
   2658.65625       2179.82788    
   2664.85742       2182.25659    
   2671.04224       2184.65430    
   2677.21069       2187.02124    
   2683.36279       2189.35742    
   2689.49878       2191.66309    
   2695.61890       2193.93823    
   2701.72290       2196.18286    
   2707.81128       2198.39722    
   2713.88379       2200.58154    
   2719.94067       2202.73560    
   2725.98218       2204.85986    
   2732.00806       2206.95410    
   2738.01880       2209.01855    
   2744.01416       2211.05322    
   2749.99438       2213.05835    
   2755.95972       2215.03394    
   2761.90991       2216.98022    
   2767.84546       2218.89722    
   2773.76611       2220.78491    
   2779.67212       2222.64355    
   2785.56348       2224.47314    
   2791.44043       2226.27368    
   2797.30298       2228.04541    
   2803.15112       2229.78833    
   2808.98511       2231.50244    
   2814.80493       2233.18799    
   2820.61060       2234.84497    
   2826.40234       2236.47339    
   2832.18018       2238.07349    
   2837.94434       2239.64526    
   2843.69458       2241.18896    
   2849.43115       2242.70435    
   2855.15430       2244.19165    
   2860.86401       2245.65112    
   2866.56030       2247.08252    
   2872.24316       2248.48608    
   2877.91284       2249.86206    
   2883.56934       2251.21021    
   2889.21265       2252.53076    
   2894.84277       2253.82397    
   2900.45996       2255.08960    
   2906.06421       2256.32788    
   2911.65576       2257.53882    
   2917.23462       2258.72266    
   2922.80078       2259.87915    
   2928.35425       2261.00854    
   2933.89502       2262.11108    
   2939.42334       2263.18652    
   2944.93921       2264.23511    
   2950.44287       2265.25684    
   2955.93408       2266.25195    
   2961.41309       2267.22021    
   2966.88013       2268.16187    
   2972.33496       2269.07715    
   2977.77783       2269.96582    
   2983.20874       2270.82812    
   2988.62769       2271.66406    
   2994.03467       2272.47363    
   2999.42993       2273.25708    
   3004.81348       2274.01416    
   3010.18530       2274.74512    
   3015.54541       2275.45020    
   3020.89404       2276.12915    
   3026.23120       2276.78223    
   3031.55688       2277.40942    
   3036.87109       2278.01074    
   3042.17407       2278.58643    
   3047.46582       2279.13647    
   3052.74634       2279.66089    
   3058.01562       2280.15967    
   3063.27368       2280.63281    
   3068.52075       2281.08057    
   3073.75684       2281.50293    
   3078.98193       2281.89990    
   3084.19604       2282.27148    
   3089.39917       2282.61792    
   3094.59155       2282.93921    
   3099.77319       2283.23535    
   3104.94409       2283.50635    
   3110.10425       2283.75220    
   3115.25391       2283.97314    
   3120.39282       2284.16919    
   3125.52124       2284.34033    
   3130.63916       2284.48657    
   3135.74658       2284.60815    
   3140.84351       2284.70508    
   3145.93018       2284.77710    
   3151.00659       2284.82471    
   3156.07275       2284.84766    
   3161.12866       2284.84619    
   3166.17432       2284.82007    
   3171.20972       2284.76953    
   3176.23511       2284.69458    
   3181.25024       2284.59546    
   3186.25537       2284.47192    
   3191.25049       2284.32422    
   3196.23560       2284.15234    
   3201.21094       2283.95630    
   3206.17627       2283.73633    
   3211.13184       2283.49219    
   3216.07764       2283.22412    
   3221.01367       2282.93213    
   3225.93994       2282.61621    
   3230.85645       2282.27637    
   3235.76318       2281.91284    
   3240.66040       2281.52539    
   3245.54810       2281.11426    
   3250.42603       2280.67944    
   3255.29443       2280.22095    
   3260.15332       2279.73901    
   3265.00293       2279.23340    
   3269.84302       2278.70435    
   3274.67358       2278.15186    
   3279.49487       2277.57593    
   3284.30688       2276.97681    
   3289.10938       2276.35425    
   3293.90259       2275.70850    
   3298.68652       2275.03955    
   3303.46143       2274.34741    
   3308.22705       2273.63208    
   3312.98340       2272.89355    
   3317.73071       2272.13208    
   3322.46899       2271.34766    
   3327.19800       2270.54028    
   3331.91797       2269.70996    
   3336.62891       2268.85669    
   3341.33081       2267.98047    
   3346.02393       2267.08154    
   3350.70801       2266.15991    
   3355.38306       2265.21558    
   3360.04932       2264.24854    
   3364.70654       2263.25879    
   3369.35498       2262.24634    
   3373.99463       2261.21143    
   3378.62549       2260.15405    
   3383.24756       2259.07422    
   3387.86084       2257.97192    
   3392.46533       2256.84717    
   3397.06104       2255.70020    
   3401.64819       2254.53076    
   3406.22656       2253.33911    
   3410.79639       2252.12524    
   3415.35742       2250.88916    
   3419.90991       2249.63110    
   3424.45386       2248.35083    
   3428.98926       2247.04858    
   3433.51611       2245.72412    
   3438.03442       2244.37769    
   3442.54419       2243.00952    
   3447.04541       2241.61938    
   3451.53833       2240.20728    
   3456.02271       2238.77344    
   3460.49854       2237.31787    
   3464.96606       2235.84058    
   3469.42529       2234.34155    
   3473.87598       2232.82080    
   3478.31836       2231.27856    
   3482.75244       2229.71460    
   3487.17822       2228.12915    
   3491.59570       2226.52222    
   3496.00488       2224.89380    
   3500.40576       2223.24390    
   3504.79834       2221.57275    
   3509.18262       2219.88013    
   3513.55859       2218.16626    
   3517.92651       2216.43115    
   3522.28613       2214.67480    
   3526.63770       2212.89722    
   3530.98096       2211.09863    
   3535.31616       2209.27881    
   3539.64307       2207.43799    
   3543.96191       2205.57617    
   3548.27271       2203.69336    
   3552.57520       2201.78955    
   3556.86963       2199.86499    
   3561.15601       2197.91943    
   3565.43433       2195.95312    
   3569.70459       2193.96606    
   3573.96680       2191.95825    
   3578.22095       2189.92969    
   3582.46729       2187.88062    
   3586.70557       2185.81079    
   3590.93579       2183.72046    
   3595.15796       2181.60962    
   3599.37231       2179.47827    
   3603.57861       2177.32642    
   3607.77710       2175.15405    
   3611.96753       2172.96143    
   3616.15015       2170.74854    
   3620.32471       2168.51538    
   3624.49146       2166.26196    
   3628.65039       2163.98828    
   3632.80127       2161.69434    
   3636.94434       2159.38037    
   3641.07959       2157.04639    
   3645.20703       2154.69214    
   3649.32666       2152.31787    
   3653.43848       2149.92383    
   3657.54248       2147.50977    
   3661.63867       2145.07593    
   3665.72705       2142.62207    
   3669.80762       2140.14844    
   3673.88037       2137.65503    
   3677.94531       2135.14209    
   3682.00244       2132.60938    
   3686.05176       2130.05713    
   3690.09351       2127.48511    
   3694.12744       2124.89355    
   3698.15356       2122.28247    
   3702.17212       2119.65210    
   3706.18286       2117.00220    
   3710.18579       2114.33301    
   3714.18115       2111.64429    
   3718.16870       2108.93628    
   3722.14868       2106.20923    
   3726.12085       2103.46289    
   3730.08545       2100.69727    
   3734.04248       2097.91260    
   3737.99170       2095.10889    
   3741.93335       2092.28613    
   3745.86743       2089.44434    
   3749.79370       2086.58350    
   3753.71240       2083.70386    
   3757.62354       2080.80518    
   3761.52710       2077.88770    
   3765.42310       2074.95142    
   3769.31152       2071.99634    
   3773.19214       2069.02271    
   3777.06519       2066.03027    
   3780.93066       2063.01929    
   3784.78857       2059.98975    
   3788.63892       2056.94165    
   3792.48169       2053.87500    
   3796.31689       2050.79004    
   3800.14453       2047.68665    
   3803.96484       2044.56482    
   3807.77759       2041.42468    
   3811.58276       2038.26636    
   3815.38037       2035.08972    
   3819.17041       2031.89490    
   3822.95312       2028.68201    
   3826.72827       2025.45093    
   3830.49585       2022.20190    
   3834.25586       2018.93481    
   3838.00854       2015.64978    
   3841.75366       2012.34680    
   3845.49121       2009.02588    
   3849.22144       2005.68713    
   3852.94409       2002.33069    
   3856.65942       1998.95642    
   3860.36719       1995.56445    
   3864.06763       1992.15479    
   3867.76050       1988.72754    
   3871.44604       1985.28271    
   3875.12402       1981.82043    
   3878.79468       1978.34058    
   3882.45776       1974.84338    
   3886.11353       1971.32874    
   3889.76196       1967.79675    
   3893.40283       1964.24744    
   3897.03638       1960.68091    
   3900.66260       1957.09717    
   3904.28125       1953.49622    
   3907.89258       1949.87817    
   3911.49658       1946.24304    
   3915.09326       1942.59082    
   3918.68237       1938.92163    
   3922.26416       1935.23547    
   3925.83862       1931.53247    
   3929.40576       1927.81262    
   3932.96558       1924.07593    
   3936.51807       1920.32251    
   3940.06323       1916.55237    
   3943.60107       1912.76550    
   3947.13159       1908.96204    
   3950.65479       1905.14197    
   3954.17065       1901.30542    
   3957.67920       1897.45239    
   3961.18042       1893.58289    
   3964.67432       1889.69702    
   3968.16089       1885.79480    
   3971.64014       1881.87622    
   3975.11206       1877.94141    
   3978.57666       1873.99036    
   3982.03418       1870.02319    
   3985.48438       1866.03979    
   3988.92725       1862.04041    
   3992.36279       1858.02490    
   3995.79102       1853.99341    
   3999.21216       1849.94604    
   4002.62598       1845.88281    
   4006.03247       1841.80371    
   4009.43188       1837.70874    
   4012.82397       1833.59802    
   4016.20874       1829.47156    
   4019.58643       1825.32947    
   4022.95679       1821.17175    
   4026.32007       1816.99841    
   4029.67603       1812.80957    
   4033.02490       1808.60522    
   4036.36646       1804.38550    
   4039.70093       1800.15039    
   4043.02808       1795.89990    
   4046.34814       1791.63416    
   4049.66113       1787.35315    
   4052.96680       1783.05688    
   4056.26538       1778.74548    
   4059.55688       1774.41895    
   4062.84106       1770.07739    
   4066.11816       1765.72083    
   4069.38818       1761.34924    
   4072.65088       1756.96277    
   4075.90649       1752.56140    
   4079.15503       1748.14514    
   4082.39648       1743.71411    
   4085.63086       1739.26831    
   4088.85815       1734.80786    
   4092.07812       1730.33276    
   4095.29102       1725.84302    
   4098.49707       1721.33875    
   4101.69580       1716.81995    
   4104.88770       1712.28662    
   4108.07227       1707.73889    
   4111.25000       1703.17676    
   4114.42041       1698.60034    
   4117.58398       1694.00964    
   4120.74023       1689.40466    
   4123.88965       1684.78552    
   4127.03174       1680.15222    
   4130.16699       1675.50488    
